"time","battery.capacitor[1].v","battery.capacitor[2].v","battery.limIntegrator.y","energy.y"
0,0,0,0.10000000000000001,0
0.050000000000000003,6.0745218857354192e-08,1.8195275741955425e-07,0.10000002682140118,0.033294267858000194
0.10000000000000001,2.4291329933904738e-07,7.2660879151213028e-07,0.1000001115130687,0.13317812037624921
0.15000000000000002,5.4640940121584843e-07,1.6322688206595869e-06,0.10000025407510552,0.29965368508332324
0.20000000000000001,9.7113250190435226e-07,2.8971329490130542e-06,0.10000045450751249,0.53272310644109488
0.25,1.5169796035890183e-06,4.5193738591940404e-06,0.10000071281028981,0.83238857893616069
0.30000000000000004,2.1838496819547089e-06,6.4972095267044073e-06,0.10000102898343727,1.1986522667287303
0.35000000000000003,2.9716414002750251e-06,8.828856590188357e-06,0.10000140302695484,1.631516345861096
0.40000000000000002,3.8802535890343557e-06,1.1512539526361781e-05,0.10000183494084253,2.130982994668333
0.45000000000000001,4.9095864525309211e-06,1.454653669747935e-05,0.10000232472510025,2.6970543974900463
0.5,6.0595392952845439e-06,1.7929090286903412e-05,0.10000287237972795,3.3297327336548754
0.55000000000000004,7.3300116256485912e-06,2.1658450863643652e-05,0.10000347790472555,4.029020183857436
0.60000000000000009,8.7209028033397524e-06,2.5732910422825237e-05,0.10000414130009308,4.7949189854710639
0.65000000000000002,1.0232112346537138e-05,3.0150716794952249e-05,0.10000486256583049,5.6274313154435847
0.70000000000000007,1.1863539727829127e-05,3.4910130516995929e-05,0.10000564170193772,6.5265593681076632
0.75,1.361508558662136e-05,4.0009509939327028e-05,0.10000647870841471,7.4923054067784332
0.80000000000000004,1.5486649692701693e-05,4.5447140991976795e-05,0.10000737358526145,8.5246716439410548
0.85000000000000009,1.7478131617569763e-05,5.1221293091857868e-05,0.10000832633247785,9.6236602804905491
0.90000000000000002,1.958943184283324e-05,5.7330324223853841e-05,0.10000933695006392,10.789273586897382
0.95000000000000007,2.1820450819601882e-05,6.3772589273191331e-05,0.10001040543801956,12.021513831131662
1,2.4171088285494329e-05,7.0546370609459054e-05,0.10001153179634478,13.320383222668182
1.05,2.6641244698899816e-05,7.7650024384284106e-05,0.1000127160250395,14.685884031285983
1.1000000000000001,2.9230821076516571e-05,8.5081964231833559e-05,0.1000139581241037,16.118018574237613
1.1500000000000001,3.1939717332356269e-05,9.2840490255554861e-05,0.10001525809353733,17.616789075013184
1.2000000000000002,3.4767833911143665e-05,0.00010092395676956369,0.10001661593334035,19.182197801955937
1.25,3.7715072136458428e-05,0.00010933080542796803,0.10001803164351271,20.814247096138622
1.3,4.0781332446679426e-05,0.00011805938991423148,0.10001950522405435,22.512939225379338
1.3500000000000001,4.3966515671856899e-05,0.0001271081028358505,0.10002103667496527,24.27827648990888
1.4000000000000001,4.7270522720139247e-05,0.00013647534456165899,0.1000226259962454,26.110261196421042
1.4500000000000002,5.0693254577772956e-05,0.00014615952322182815,0.1000242731878947,28.008895658072621
1.5,5.4234612309102628e-05,0.00015615905470786642,0.10002597824991312,29.974182194483394
1.55,5.7894497328855966e-05,0.00016647238710837899,0.10002774118230064,32.006123153086186
1.6000000000000001,6.1672810883348493e-05,0.00017709795415065657,0.10002956198505718,34.104720868447764
1.6500000000000001,6.5569454282637029e-05,0.00018803419603488709,0.10003144065818274,36.269977680472202
1.7000000000000002,6.9584328983577579e-05,0.00019927956688807464,0.10003337720167725,38.501895940913435
1.75,7.3717336529583686e-05,0.00021083252935772353,0.10003537161554069,40.800478008651716
1.8,7.7968378550626226e-05,0.00022269155461183799,0.10003742389977298,43.165726249693577
1.8500000000000001,8.2337356668434162e-05,0.00023485510682232777,0.10003953405437413,45.597643026433985
1.9000000000000001,8.6824172500783075e-05,0.00024732164386694571,0.10004170207934403,48.096230698142151
1.9500000000000002,9.1428728020229394e-05,0.000260089676046323,0.10004392797468269,50.661491661594994
2,9.615092515670593e-05,0.00027315770103746517,0.10004621174039005,53.293428306063539
2.0500000000000003,0.00010099066592236561,0.00028652422432793565,0.10004855337646605,55.992043027453811
2.1000000000000001,0.00010594785241158113,0.00030018775921585538,0.10005095288291069,58.757338228306772
2.1499999999999999,0.0001110223868009453,0.00031414682680990359,0.1000534102597239,61.589316317798449
2.2000000000000002,0.00011621417130296863,0.0003283999350940373,0.10005592550690563,64.48797970313575
2.25,0.00012152310827632022,0.00034294562877226835,0.10005849862445583,67.453330810041905
2.3000000000000003,0.00012694910013964325,0.0003577824503007914,0.10006112961237451,70.485372066741377
2.3500000000000001,0.00013249204939153492,0.00037290894892185453,0.10006381847066156,73.584105907672509
2.4000000000000004,0.00013815185861224257,0.00038832368143054723,0.10006656519931698,76.749534773802765
2.4500000000000002,0.00014392843046366312,0.00040402521217479869,0.10006936979834072,79.981661112628601
2.5,0.00014982166765510445,0.00042001209680391356,0.10007223226773271,83.280487372761115
2.5500000000000003,0.00015583147298965405,0.0004362829042774341,0.10007515260749295,86.64601601125861
2.6000000000000001,0.00016195774938664839,0.00045283622752978654,0.10007813081762137,90.078249497179868
2.6500000000000004,0.00016820039982507685,0.00046967065660746083,0.10008116689811793,93.577190302634179
2.7000000000000002,0.00017455932736476284,0.00048678478872264886,0.1000842608489826,97.142840906130914
2.75,0.00018103443514636436,0.00050417722825324602,0.10008741267021531,100.77520379257953
2.8000000000000003,0.00018762562639137369,0.00052184658674285078,0.10009062236181604,104.47428145328961
2.8500000000000001,0.00019433280440211729,0.00053979148290076383,0.10009388992378475,108.24007638597075
2.9000000000000004,0.00020115587256175615,0.00055801054260198922,0.10009721535612139,112.07259109473277
2.9500000000000002,0.00020809473433428541,0.00057650239888723379,0.10010059865882591,115.97182809008545
3,0.00021514929326453468,0.00059526569196290721,0.10010403983189828,119.93778988893871
3.0500000000000003,0.0002223194529781679,0.0006142990692011226,0.10010753887533845,123.97047901460265
3.1000000000000001,0.00022960511718168313,0.00063360118513969472,0.10011109578914637,128.06989799678726
3.1500000000000004,0.00023700618966785868,0.00065317068157462216,0.10011471057332201,132.23604936807882
3.2000000000000002,0.00024452257430353713,0.00067300623221618928,0.10011838322786532,136.46893567184452
3.25,0.00025215417503647017,0.00069310651766639692,0.10012211375277626,140.76855945780326
3.3000000000000003,0.00025990089589690769,0.00071347021961279779,0.10012590214805478,145.13492328099775
3.3500000000000001,0.00026776264099595776,0.00073409602681777158,0.10012974841370084,149.56802970285443
3.4000000000000004,0.00027573931452558868,0.00075498263511852642,0.10013365254971442,154.06788129118419
3.4500000000000002,0.00028383082075862713,0.00077612874742709727,0.10013761455609543,158.63448062018151
3.5,0.00029203706404875939,0.00079753307373034747,0.10014163443284387,163.26783027042518
3.5500000000000003,0.00030035794883053092,0.00081919433108996749,0.10014571217995968,167.96793282887785
3.6000000000000001,0.00030879337961934613,0.00084111124364247606,0.10014984779744281,172.73479088888615
3.6500000000000004,0.00031734326101146888,0.0008632825425992194,0.10015404128529323,177.56840705018078
3.7000000000000002,0.00032600749768402199,0.00088570696624637078,0.10015829264351089,182.4687839188764
3.75,0.00033478599439498773,0.00090838325994493224,0.10016260187209575,187.43592410747181
3.8000000000000003,0.00034367865535385976,0.00093130985402824977,0.10016696897104778,192.46983012772725
3.8500000000000001,0.00035268538586771765,0.00095448570626909565,0.10017139394036692,197.57050467084596
3.9000000000000004,0.00036180609095427292,0.00097790959203125031,0.10017587678005313,202.73795037139811
3.9500000000000002,0.00037104067566777,0.0010015802710671186,0.10018041749010637,207.97216986279298
4,0.00038038904514195692,0.0010254965095099901,0.1001850160705266,213.27316578459312
4.0499999999999998,0.00038985110459008483,0.0010496570798740382,0.10018967252131376,218.64094078251432
4.1000000000000005,0.00039942675930490832,0.0010740607610543222,0.10019438684246783,224.07549750842568
4.1500000000000004,0.00040911591465868504,0.0010987063383267833,0.10019915903398877,229.57683862034924
4.2000000000000002,0.00041891847610317625,0.0011235926033482497,0.10020398909587648,235.14496678246053
4.25,0.00042883434916964644,0.0011487183541564318,0.10020887702813099,240.77988466508819
4.2999999999999998,0.00043886343946886327,0.0011740823951699266,0.10021382283075224,246.48159494471406
4.3500000000000005,0.0004490056526910981,0.001199683537188214,0.10021882650374016,252.25010030397345
4.4000000000000004,0.00045926089460612487,0.0012255205973916582,0.10022388804709473,258.08540343165436
4.4500000000000002,0.00046962907106322144,0.0012515923993415077,0.10022900746081591,263.98750702269848
4.5,0.00048011008799116883,0.0012778977729798972,0.10023418474490363,269.95641377820061
4.5499999999999998,0.00049070385139825148,0.0013044355546298436,0.10023941989935788,275.99212640540861
4.6000000000000005,0.00050141026737225702,0.0013312045869952496,0.10024471292417859,282.09464761772392
4.6500000000000004,0.00051222924208047633,0.0013582037191609013,0.10025006381936574,288.2639801347006
4.7000000000000002,0.00052316068176970335,0.0013854318065924698,0.10025547258491925,294.50012668204647
4.75,0.00053420449276623595,0.0014128877111365104,0.10026093922083913,300.80308999162241
4.8000000000000007,0.0005453605814758752,0.0014405703010204637,0.10026646372712532,307.17287280144262
4.8500000000000005,0.00055662885438392492,0.0014684784508526524,0.10027204610377774,313.60947785567402
4.9000000000000004,0.00056800921805519268,0.0014966110416222865,0.1002776863507964,320.11290790463744
4.9500000000000002,0.00057950157913398931,0.0015249669606994575,0.10028338446818122,326.68316570480647
5,0.00059110584434412898,0.0015535451018351442,0.10028914045593215,333.32025401880816
5.0500000000000007,0.00060282192031794655,0.0015823442940059947,0.10029495431404921,340.02417559492051
5.1000000000000005,0.00061464971365677928,0.0016113633265843093,0.10030082604253229,346.79493317432474
5.1500000000000004,0.00062658913167300669,0.0016406012581408023,0.10030675564138136,353.63252958008195
5.2000000000000002,0.00063864008140049778,0.0016700570046380304,0.10031274311059639,360.53696759847776
5.25,0.0006508024699523648,0.0016997294883113034,0.10031878845017735,367.50825002191965
5.3000000000000007,0.00066307620452096393,0.001729617637668688,0.10032489166012416,374.5463796489376
5.3500000000000005,0.00067546119237789381,0.0017597203874910033,0.10033105274043683,381.65135928418289
5.4000000000000004,0.00068795734087399765,0.0017900366788318254,0.10033727169111525,388.82319173842961
5.4500000000000002,0.00070056455743936158,0.0018205654590174852,0.10034354851215944,396.06187982857347
5.5,0.00071328274958331575,0.0018513056816470675,0.10034988320356932,403.36742637763257
5.5500000000000007,0.00072611182489443313,0.0018822563065924137,0.10035627576534485,410.73983421474702
5.6000000000000005,0.00073905169104053004,0.0019134162999981182,0.10036272619748603,418.17910617517856
5.6500000000000004,0.00075210225576866725,0.0019447846342815318,0.10036923449999274,425.68524510031148
5.7000000000000002,0.00076526342690514824,0.0019763602881327593,0.100375800672865,433.25825383765192
5.75,0.00077853511235551997,0.0020081422465146616,0.10038242471610274,440.89813524082814
5.8000000000000007,0.00079191722010457373,0.0020401295006628544,0.10038910662970593,448.6048921695907
5.8500000000000005,0.00080540965821634296,0.0020723210480857067,0.10039584641367451,456.37852748981157
5.9000000000000004,0.00081901233483410536,0.0021047158925643445,0.10040264406800846,464.21904407348552
5.9500000000000002,0.00083272515818038229,0.0021373130441526477,0.10040949959270772,472.12644479872887
6,0.00084654803655693817,0.0021701115191772513,0.10041641298777224,480.10073254978033
6.0500000000000007,0.00086048087834478129,0.0022031103402375468,0.10042338425320201,488.14191021700066
6.1000000000000005,0.00087452359200416269,0.0022363085362056769,0.10043041338899696,496.24998069687217
6.1500000000000004,0.00088867608239826185,0.002269703431475359,0.10043750039515704,504.42494633658214
6.2000000000000002,0.00090293826043817552,0.0023032951341992796,0.10044464527168225,512.66681039118691
6.25,0.00091731003541665578,0.0023370829688403069,0.10045184801857249,520.97557586539324
6.3000000000000007,0.0009317913160551268,0.0023710659633949856,0.10045910863582777,529.35124567174159
6.3500000000000005,0.00094638201115263693,0.0024052431513789142,0.100466427123448,537.79382272864962
6.4000000000000004,0.00096108202958585832,0.0024396135718267467,0.10047380348143317,546.303309960413
6.4500000000000002,0.00097589128030908725,0.0024741762692921899,0.10048123770978322,554.8797102972045
6.5,0.00099080967235424286,0.0025089302938480071,0.10048872980849811,563.52302667507354
6.5500000000000007,0.00100583711483087,0.0025438747010860141,0.10049627977757783,572.2332620359482
6.6000000000000005,0.0010209735169261344,0.0025790085521170806,0.10050388761702228,581.01041932763258
6.6500000000000004,0.0010362187879048288,0.0026143309135711317,0.10051155332683147,589.85450150380939
6.7000000000000002,0.0010515728371093675,0.0026498408575971466,0.10051927690700532,598.76551152403772
6.75,0.0010670355739597895,0.0026855374618631593,0.10052705835754382,607.74345235375449
6.8000000000000007,0.0010826069079537576,0.0027214198095562589,0.10053489767844687,616.78832696427423
6.8500000000000005,0.0010982867486665586,0.0027574869893825845,0.10054279486971447,625.90013833278795
6.9000000000000004,0.0011140750057511018,0.002793738095567334,0.10055074993134659,635.07888944236493
6.9500000000000002,0.0011299715889379225,0.0028301722278547578,0.10055876286334317,644.32458328195173
7,0.0011459764080351779,0.0028667884915081613,0.10056683366570415,653.63722284637151
7.0500000000000007,0.0011620893729286509,0.0029035859973099041,0.10057496233842951,663.01681113632571
7.1000000000000005,0.0011783103935817454,0.002940563861561398,0.1005831488815192,672.46335115839258
7.1500000000000004,0.001194639380035492,0.0029777212060831124,0.10059139329497317,681.97684592502787
7.2000000000000002,0.0012110762409467176,0.0030150565510729905,0.10059969557879139,691.55729825849971
7.25,0.0012276208850556377,0.0030525684246424426,0.10060805573297382,701.20471098772805
7.3000000000000007,0.0012442732248449393,0.0030902568825458966,0.10061647375752041,710.91908743904935
7.3500000000000005,0.0012610331706154755,0.003128121047634917,0.10062494965243111,720.70043064163247
7.4000000000000004,0.001277900632744281,0.0031661600476807347,0.10063348341770589,730.54874363033093
7.4500000000000002,0.0012948755216845719,0.0032043730153742461,0.1006420750533447,740.46402944568104
7.5,0.001311957747965743,0.0032427590883260114,0.1006507245593475,750.44629113390329
7.5500000000000007,0.0013291472221933723,0.0032813174090662606,0.10065943193571424,760.49553174690254
7.6000000000000005,0.0013464438550492158,0.0033200471250448829,0.10066819718244488,770.61175434226641
7.6500000000000004,0.0013638475572912115,0.0033589473886314371,0.10067702029953939,780.79496198326694
7.7000000000000002,0.0013813582397534786,0.0033980173571151462,0.1006859012869977,791.04515773885998
7.75,0.0013989758133463159,0.0034372561927048986,0.10069484014481977,801.36234468368514
7.8000000000000007,0.0014167001890562038,0.0034766630625292496,0.1007038368730056,811.74652589806567
7.8500000000000005,0.0014345312779458015,0.0035162371386364159,0.10071289147155513,822.19770446800874
7.9000000000000004,0.0014524689911539516,0.0035559775979942835,0.10072200394046828,832.71588348520527
7.9500000000000002,0.0014705132398956751,0.0035958836224904028,0.10073117427974504,843.30106604703019
8,0.001488663935462175,0.003635954398931988,0.10074040248938536,853.95325525654187
8.0500000000000007,0.0015069209892208345,0.0036761891190459218,0.10074968856938921,864.67245422248311
8.0999999999999996,0.0015252843126152165,0.0037165869794787473,0.10075903251975651,875.45866605927904
8.1500000000000004,0.0015437538171650669,0.0037571471817966795,0.10076843434048725,886.31189388704126
8.2000000000000011,0.0015623294144663101,0.0037978689324855929,0.1007778940315814,897.23214083156245
8.25,0.0015810110161910511,0.0038387514429510292,0.10078741159303888,908.21941002432015
8.3000000000000007,0.0015997985307974151,0.003879792728555668,0.10079698702485965,919.27370422160016
8.3499999999999996,0.0016186918724748988,0.00392099287381888,0.1008066203270437,930.39502684002775
8.4000000000000004,0.001637690953389027,0.0039623512015891519,0.10081631149959096,941.58338105879545
8.4500000000000011,0.0016567956854695838,0.004003866925778996,0.10082606054250141,952.83877002666998
8.5,0.0016760059807211748,0.0040455392647243803,0.10083586745577497,964.16119689794414
8.5500000000000007,0.0016953217512232282,0.004087367441184736,0.10084573223941162,975.55066483243866
8.5999999999999996,0.0017147429091299913,0.0041293506823429516,0.10085565489341132,987.00717699549875
8.6500000000000004,0.0017342693666705358,0.0041714882198053797,0.10086563541777405,998.53073655799824
8.7000000000000011,0.0017539010361487511,0.0042137792896018243,0.10087567381249972,1010.1213466963356
8.75,0.0017736378299433491,0.0042562231321855507,0.10088577007758828,1021.7790105924362
8.8000000000000007,0.0017934796605078647,0.0042988189924332877,0.10089592421303975,1033.5037314337526
8.8499999999999996,0.0018134264403706513,0.0043415661196452189,0.10090613621885404,1045.2955124132623
8.9000000000000004,0.0018334780821348867,0.004384463767544991,0.10091640609503115,1057.1543567294714
8.9500000000000011,0.0018536344984785669,0.0044275111942797072,0.10092673384157097,1069.0802675864106
9,0.0018738956021545098,0.0044707076624199288,0.10093711945847351,1081.0732481936373
9.0500000000000007,0.0018942613059903565,0.0045140524389596795,0.1009475629457387,1093.1333017662364
9.0999999999999996,0.0019147315228885665,0.0045575447953164396,0.10095806430336654,1105.2604315248177
9.1500000000000004,0.0019353061658264241,0.0046011840073311525,0.10096862353135694,1117.4546406955192
9.2000000000000011,0.0019559851478560312,0.0046449693552682138,0.10097924062970987,1129.7159325100038
9.25,0.0019767683821043124,0.0046889001238154858,0.10098991559842528,1142.0443102054608
9.3000000000000007,0.0019976557817730149,0.0047329756020842864,0.10100064843750316,1154.4397770246076
9.3499999999999996,0.0020186472587094754,0.0047771946117238047,0.10101143914694342,1166.9023360692445
9.4000000000000004,0.0020397427254783902,0.0048215561909520374,0.10102228772674607,1179.4319905125346
9.4500000000000011,0.0020609420971283792,0.0048660601778180226,0.10103319417691101,1192.0287437800093
9.5,0.0020822452871173533,0.004910705864890035,0.10104415849743827,1204.6925991320725
9.5500000000000007,0.0021036522089767813,0.0049554925487428,0.10105518068832771,1217.4235598345251
9.6000000000000014,0.002125162776311691,0.0050004195299574805,0.10106626074957938,1230.2216291585651
9.6500000000000004,0.0021467769028006662,0.0050454861131216822,0.10107739868119317,1243.0868103807868
9.7000000000000011,0.0021684945021958526,0.0050906916068294604,0.10108859448316911,1256.0191067831834
9.75,0.0021903154883229506,0.0051360353236813072,0.10109984815550707,1269.0185216531431
9.8000000000000007,0.0022122397750812218,0.0051815165802841633,0.10111115969820705,1282.0850582834526
9.8500000000000014,0.0022342672764434834,0.0052271346972514099,0.10112252911126902,1295.2187199722944
9.9000000000000004,0.0022563979064561118,0.0052728889992028705,0.10113395639469294,1308.4195100232484
9.9500000000000011,0.0022786315792390419,0.0053187788147648169,0.10114544154847874,1321.6874317452925
